"λ,n (nm)",n,"λ,k (nm)",k,α (cm⁻¹),Reference,Details
61.99,0.793,61.99,0.494,1001417.5001602566," E. Palik, 'Handbook of Optical Constants of Solids Vol I', <i>Academic Press</i>, pp.508, (1985)",-
63.58,0.815,63.58,0.499,986256.517232656,,
65.26,0.834,65.26,0.493,949313.6244068453,,
67.02,0.843,67.02,0.487,913133.7644274719,,
68.88,0.846,68.88,0.477,870232.1113602389,,
70.85,0.84,70.85,0.469,831845.8458905367,,
72.93,0.824,72.93,0.454,782275.0937774667,,
75.14,0.785,75.14,0.457,764284.1856217916,,
77.49,0.742,77.49,0.491,796243.1244870762,,
79.99,0.719,79.99,0.529,831055.1387668463,,
82.66,0.695,82.66,0.574,872622.3968838817,,
85.51,0.675,85.51,0.645,947878.4991535103,,
88.56,0.688,88.56,0.706,1001790.6113073142,,
91.84,0.701,91.84,0.765,1046741.4547021742,,
95.37,0.726,95.37,0.82,1080468.0616309657,,
99.19,0.754,99.19,0.861,1090799.9898138167,,
103.3,0.771,103.3,0.899,1093627.0263609774,,
107.8,0.781,107.8,0.946,1102763.135545805,,
112.7,0.793,112.7,0.996,1110568.3346851585,,
118.1,0.797,118.1,1.056,1123631.4452805493,,
124,0.806,124,1.154,1169483.2007234262,,
125.2,0.82,125.2,1.172,1176340.763580587,,
126.5,0.832,126.5,1.185,1177165.942926136,,
127.8,0.84,127.8,1.198,1177974.3345854685,,
129.1,0.847,129.1,1.21,1177793.0630034546,,
130.5,0.852,130.5,1.225,1179601.8392789264,,
131.9,0.859,131.9,1.237,1178514.0598910006,,
133.3,0.861,133.3,1.253,1181219.983480273,,
134.8,0.865,134.8,1.269,1182991.4176277292,,
136.2,0.868,136.2,1.287,1187438.9853656576,,
137.8,0.872,137.8,1.304,1189154.3745373266,,
139.3,0.874,139.3,1.324,1194391.5788522288,,
140.9,0.875,140.9,1.346,1200449.5987883213,,
142.5,0.877,142.5,1.375,1212544.5329644815,,
144.2,0.885,144.2,1.403,1222650.3447951402,,
145.9,0.894,145.9,1.433,1234243.2549949756,,
147.6,0.909,147.6,1.458,1241312.2192232842,,
149.4,0.919,149.4,1.486,1249908.0811872645,,
151.2,0.934,151.2,1.512,1256637.0614359176,,
151.3,0.947,151.3,1.539,1278231.6176800241,,
155,0.96,155,1.566,1269608.798844288,,
156.9,0.973,156.9,1.594,1276659.9591643417,,
159,0.984,159,1.627,1285879.5590919731,,
161,1,161,1.664,1298785.1367884264,,
163.1,1.022,163.1,1.7,1309799.5122262782,,
165.3,1.046,165.3,1.736,1319734.990110558,,
167.5,1.072,167.5,1.771,1328659.2452555278,,
169.8,1.1,169.8,1.812,1341004.9206842652,,
172.2,1.136,172.2,1.847,1347856.3603206384,,
174.6,1.174,174.6,1.882,1354519.4442281767,,
177.1,1.215,177.1,1.915,1358814.2138056362,,
179.7,1.261,179.7,1.941,1357335.8576778607,,
182.3,1.307,182.3,1.966,1355210.3471108135,,
185.1,1.354,185.1,1.986,1348288.062675166,,
187.9,1.402,187.9,1.994,1333546.7272502496,,
190.7,1.453,190.7,2.01,1324509.9598773955,,
193.7,1.496,193.7,2.008,1302698.6160884472,,
196.8,1.526,196.8,1.991,1271323.3685563572,,
200,1.525,200,1.982,1245327.3278829942,,
203.3,1.508,203.3,2.005,1239329.7138116152,,
206.6,1.336,206.6,2.113,1285224.642213985,,
208.7,1.318,208.7,2.151,1295173.1284852219,,
210.1,1.301,210.1,2.183,1305682.3917727785,,
212.3,1.301,212.3,2.239,1325299.2842934614,,
213.8,1.299,213.8,2.28,1340099.391989659,,
216,1.311,216,2.341,1361938.5929729086,,
217.5,1.325,217.5,2.383,1376812.0080008232,,
219.8,1.352,219.8,2.446,1398423.226693473,,
221.4,1.375,221.4,2.484,1409885.4835622488,,
223.8,1.407,223.8,2.532,1421718.0695065875,,
225.4,1.426,225.4,2.562,1428351.4425016947,,
227.9,1.447,227.9,2.611,1439701.3459452305,,
229.6,1.455,229.6,2.652,1451481.4838536817,,
232.2,1.467,232.2,2.734,1479606.2557992241,,
233.9,1.482,233.9,2.802,1505385.6546145533,,
236.6,1.519,236.6,2.922,1551941.4596431747,,
238.4,1.558,238.4,3.016,1589772.3898031572,,
241.2,1.649,241.2,3.176,1654676.3296519376,,
243.1,1.745,243.1,3.291,1701189.8680319225,,
246,1.958,246,3.438,1756226.9175677577,,
248,2.131,248,3.495,1770946.1813381175,,
251,2.391,251,3.519,1761795.1470888418,,
253,2.546,253,3.514,1745384.4402710723,,
256.2,2.782,256.2,3.523,1727998.582138461,,
258.3,2.984,258.3,3.517,1711030.7956136744,,
261.6,3.344,261.6,3.401,1633724.253036527,,
263.8,3.56,263.8,3.223,1535307.5242638213,,
267.2,3.757,267.2,2.877,1353048.2132302148,,
269.5,3.8,269.5,2.637,1229592.5532491703,,
273.1,3.759,273.1,2.335,1074422.3868373735,,
275.5,3.697,275.5,2.186,997099.3162609492,,
279.2,3.593,279.2,2.024,910971.8525595618,,
281.8,3.527,281.8,1.948,868676.0098215637,,
285.7,3.437,285.7,1.865,820310.8573951647,,
288.3,3.384,288.3,1.826,795913.7267367274,,
292.4,3.314,292.4,1.782,765843.790519427,,
295.2,3.275,295.2,1.762,750065.8882960997,,
299.5,3.224,299.5,1.742,730905.4293894384,,
302.4,3.196,302.4,1.735,720987.2029071815,,
306.9,3.161,306.9,1.73,708368.2360000446,,
310,3.141,310,1.73,701284.5536400442,,
314.7,3.119,314.7,1.737,693606.1568840764,,
317.9,3.108,317.9,1.744,689391.3290796602,,
322.9,3.097,322.9,1.76,684943.0870632438,,
326.3,3.095,326.3,1.773,682812.5988127127,,
331.5,3.097,331.5,1.797,681199.6378281579,,
335.1,3.103,335.1,1.816,681006.5364272235,,
340.6,3.118,340.6,1.848,681815.9981014606,,
344.4,3.133,344.4,1.872,683050.1100487914,,
350.2,3.165,350.2,1.915,687167.3251427131,,
354.2,3.193,354.2,1.948,691114.9056118483,,
360.4,3.248,360.4,2.009,700494.9657116422,,
364.7,3.299,364.7,2.06,709808.704841785,,
371.2,3.426,371.2,2.159,730894.2391271943,,
375.7,3.576,375.7,2.209,738863.7925770406,,
382.7,3.819,382.7,2.177,714841.6207854695,,
387.5,3.976,387.5,2.143,694960.8316534633,,
394.8,4.296,394.8,1.966,625772.1536937723,,
400,4.415,400,1.735,545066.3253978292,,
407.8,4.433,407.8,1.414,435724.5720623803,,
413.3,4.395,413.3,1.247,379149.870701812,,
421.7,4.314,421.7,1.061,316170.71903806215,,
427.5,4.256,427.5,0.964,283367.9829764267,,
436.6,4.173,436.6,0.847,243786.43862487905,,
442.8,4.121,442.8,0.786,223061.59220610457,,
452.5,4.048,452.5,0.712,197729.41165577306,,
459.2,4.004,459.2,0.667,182529.81706832687,,
469.6,3.94,469.6,0.614,164304.7605880863,,
476.9,3.903,476.9,0.579,152567.17520893188,,
488.1,3.851,488.1,0.536,137995.79285590077,,
495.9,3.818,495.9,0.511,129490.12671783702,,
508.1,3.773,508.1,0.479,118466.67042468103,,
516.6,3.745,516.6,0.457,111165.91890751339,,
529.8,3.706,529.8,0.431,102229.25131726697,,
539.1,3.682,539.1,0.416,96969.21119594539,,
553.5,3.649,553.5,0.393,89224.63688244183,,
563.6,3.629,563.6,0.38,84727.12621462891,,
579.4,3.602,579.4,0.358,77645.16189058653,,
590.4,3.585,590.4,0.347,73857.22566366248,,
607.8,3.563,607.8,0.329,68021.32168680764,,
619.9,3.549,619.9,0.317,64261.00152850231,,
639.1,3.53,639.1,0.299,58791.18782183371,,
652.6,3.517,652.6,0.293,56419.65353979831,,
673.8,3.501,673.8,0.278,51847.00253475587,,
688.8,3.492,688.8,0.27,49258.42139774938,,
712.5,3.481,712.5,0.255,44974.37904086441,,
729.3,3.476,729.3,0.242,41698.36402954779,,
756,3.469,756,0.225,37399.912542735634,,
774.9,3.467,774.9,0.218,35352.54605665634,,
805.1,3.459,805.1,0.209,32621.68001988656,,
826.6,3.456,826.6,0.203,30861.03598735679,,
925,3.3962,925,0.0355,4822.769262808114,,
930,3.3905,930,0.0109,1472.8326849087634,,
935,3.385,935,0.0059,792.9581457189211,,
940,3.3797,940,0.00318,425.11764418789545,,
945,3.3746,945,0.000967,128.58921041360128,,
950,3.3696,950,0.000527,69.71028751333984,,
953.4,3.362,953.4,0.000281,37.03744642998666,,
960,3.36,960,0.0000739,9.673487379178571,,
965,3.3555,965,0.0000392,5.10468112002984,,
968.3,3.345,968.3,0.0000246,3.192530384315147,,
975,3.3467,975,0.0000113,1.4564101327411143,,